# step, temp, etotal, ke, tpot, evdw, ebond
0 0.008142857142857144 11447.416434815796 0.012214285714285717 11447.404220530081 0.0 11447.404220530081
10 0.008095541274181639 179.10708352022277 0.012143311911272457 179.0949402083115 0.0 179.0949402083115
20 0.007955775201267232 0.7123471746702312 0.011933662801900847 0.7004135118683303 0.0 0.7004135118683303
30 0.007729898530266903 0.016403069217611067 0.011594847795400355 0.004808221422210714 0.0 0.004808221422210714
40 0.007427825719136925 0.010060338691397436 0.011141738578705387 -0.0010813998873079515 0.0 -0.0010813998873079515
50 0.007062172642036677 0.010158283299392881 0.010593258963055015 -0.00043497566366213457 0.0 -0.00043497566366213457
60 0.00664721771234796 0.009799136055852302 0.00997082656852194 -0.00017169051266963787 0.0 -0.00017169051266963787
70 0.00619783326503013 0.009220505339067726 0.009296749897545194 -7.62445584774681e-05 0.0 -7.62445584774681e-05
80 0.005728508866853467 0.008554902152989884 0.0085927633002802 -3.786114729031624e-05 0.0 -3.786114729031624e-05
90 0.005252556043479386 0.007858190236417815 0.00787883406521908 -2.064382880126484e-05 0.0 -2.064382880126484e-05
100 0.004781543377517994 0.007160155374786877 0.007172315066276991 -1.2159691490113995e-05 0.0 -1.2159691490113995e-05
110 0.0043249715574962275 0.006479820164376773 0.006487457336244342 -7.637171867568732e-06 0.0 -7.637171867568732e-06
120 0.0038901666206107703 0.005830187509081265 0.005835249930916156 -5.062421834891073e-06 0.0 -5.062421834891073e-06
130 0.0034823496261338267 0.005220011656798674 0.00522352443920074 -3.5127824020664904e-06 0.0 -3.5127824020664904e-06
140 0.003104832362603223 0.004654713709220833 0.0046572485439048345 -2.534834684001428e-06 0.0 -2.534834684001428e-06
150 0.0027592892874838816 0.00413704196795317 0.004138933931225822 -1.8919632726520316e-06 0.0 -1.8919632726520316e-06
160 0.0024460626238844356 0.0036676398144109413 0.003669093935826653 -1.4541214157119727e-06 0.0 -1.4541214157119727e-06
170 0.002164467328483957 0.00324555445624095 0.0032467009927259352 -1.146536484985433e-06 0.0 -1.146536484985433e-06
180 0.0019130730511992637 0.0028686850941512096 0.0028696095767988955 -9.244826476858822e-07 0.0 -9.244826476858822e-07
190 0.0016899496138741898 0.00253416416458986 0.0025349244208112847 -7.60256221424359e-07 0.0 -7.60256221424359e-07
200 0.0014928701058552903 0.002238669002316817 0.0022393051587829356 -6.361564661187046e-07 0.0 -6.361564661187046e-07
210 0.0013194711897557977 0.0019786662288118822 0.0019792067846336964 -5.405558218143176e-07 0.0 -5.405558218143176e-07
220 0.0011673737757082856 0.0017505950400504493 0.0017510606635624283 -4.6562351197913e-07 0.0 -4.6562351197913e-07
230 0.001034269198755289 0.0015509978322780168 0.0015514037981329333 -4.0596585491645865e-07 0.0 -4.0596585491645865e-07
240 0.0009179768249557464 0.0013766074461151235 0.0013769652374336196 -3.5779131849598204e-07 0.0 -3.5779131849598204e-07
250 0.0008164789982655243 0.0012244001126461067 0.0012247184973982865 -3.1838475217985877e-07 0.0 -3.1838475217985877e-07
260 0.0007279387391748161 0.001091622340127144 0.0010919081087622242 -2.857686350801768e-07 0.0 -2.857686350801768e-07
270 0.0006507048572245597 0.0009757988056427207 0.0009760572858368396 -2.584801941188754e-07 0.0 -2.584801941188754e-07
280 0.0005833083094876826 0.0008747270423226359 0.0008749624642315238 -2.3542190888796752e-07 0.0 -2.3542190888796752e-07
290 0.0005244528314778922 0.0007864634877705479 0.0007866792472168383 -2.157594462905114e-07 0.0 -2.157594462905114e-07
300 0.00047300214488237854 0.0007093043664968197 0.0007095032173235678 -1.988508267481477e-07 0.0 -1.988508267481477e-07
310 0.0004279654344647144 0.0006417639551828687 0.0006419481516970716 -1.8419651420288057e-07 0.0 -1.8419651420288057e-07
320 0.00038848228967066755 0.0005825520307552984 0.0005827234345060013 -1.7140375070293092e-07 0.0 -1.7140375070293092e-07
330 0.00035380791759440723 0.0005305517156574472 0.0005307118763916109 -1.6016073416360353e-07 0.0 -1.6016073416360353e-07
340 0.00032329913938442586 0.00048479849138355065 0.0004849487090766388 -1.5021769308812536e-07 0.0 -1.5021769308812536e-07
350 0.00029640146597471813 0.0004444608261050339 0.00044460219896207717 -1.413728570432339e-07 0.0 -1.413728570432339e-07
360 0.0002726373955061115 0.00040882263131432496 0.0004089560932591672 -1.334619448422107e-07 0.0 -1.334619448422107e-07
370 0.000251595969782512 0.00037726760446452415 0.000377393954673768 -1.2635020924385484e-07 0.0 -1.2635020924385484e-07
380 0.00023292355853641057 0.00034926541144501074 0.00034938533780461584 -1.1992635960510934e-07 0.0 -1.1992635960510934e-07
390 0.0002163157983444848 0.000324359599638739 0.0003244736975167272 -1.140978779882107e-07 0.0 -1.140978779882107e-07
400 0.00020151059001647807 0.0003021570976456459 0.0003022658850247171 -1.0878737907120441e-07 0.0 -1.0878737907120441e-07
410 0.00018828204827770032 0.00028231914265757906 0.0002824230724165505 -1.0392975897143713e-07 0.0 -1.0392975897143713e-07
420 0.000176435296183174 0.0002645534743293678 0.000264652944274761 -9.94699453932284e-08 0.0 -9.94699453932284e-08
430 0.00016580200074787227 0.0002486076400120153 0.0002487030011218084 -9.536110979309134e-08 0.0 -9.536110979309134e-08
440 0.0001562365534918482 0.00023426326700054753 0.0002343548302377723 -9.156323722475347e-08 0.0 -9.156323722475347e-08
450 0.0001476128084233146 0.00022133117065988936 0.0002214192126349719 -8.804197508254692e-08 0.0 -8.804197508254692e-08
460 0.000139821299377211 0.00020964718136501668 0.0002097319490658165 -8.476770079981282e-08 0.0 -8.476770079981282e-08
470 0.00013276686792565266 0.00019906858712592047 0.000199150301888479 -8.171476255853028e-08 0.0 -8.171476255853028e-08
480 0.00012636664187801625 0.00018947110195947328 0.0001895499628170244 -7.886085755111094e-08 0.0 -7.886085755111094e-08
490 0.00012054831247198818 0.00018074628218773641 0.00018082246870798228 -7.618652024587187e-08 0.0 -7.618652024587187e-08
500 0.0001152486656242502 0.00017279932373725706 0.0001728729984363753 -7.367469911823333e-08 0.0 -7.367469911823333e-08
510 0.00011041232904079419 0.00016554718315628397 0.0001656184935611913 -7.131040490733018e-08 0.0 -7.131040490733018e-08
520 0.00010599070261094416 0.000158916973499419 0.00015898605391641624 -6.908041699721769e-08 0.0 -6.908041699721769e-08
530 0.00010194104438256076 0.00015284459353657765 0.00015291156657384113 -6.697303726347574e-08 0.0 -6.697303726347574e-08
540 9.82256886089789e-05 0.00014727355503060623 0.00014733853291346835 -6.4977882862117e-08 0.0 -6.4977882862117e-08
550 9.481137594614696e-05 0.00014215397820810906 0.00014221706391922043 -6.308571111137169e-08 0.0 -6.308571111137169e-08
560 9.166867893541592e-05 0.00013744173013218854 0.0001375030184031239 -6.128827093535222e-08 0.0 -6.128827093535222e-08
570 8.877150850350198e-05 0.00013309768457887044 0.00013315726275525298 -5.957817638254475e-08 0.0 -5.957817638254475e-08
580 8.609668941029374e-05 0.00012908708531687784 0.0001291450341154406 -5.794879856278997e-08 0.0 -5.794879856278997e-08
590 8.362359443466094e-05 0.0001253789974789808 0.0001254353916519914 -5.639417301059917e-08 0.0 -5.639417301059917e-08
600 8.133382865867013e-05 0.00012194583406798909 0.0001220007429880052 -5.490892001611591e-08 0.0 -5.490892001611591e-08
610 7.921095653546361e-05 0.00011876294662730002 0.00011881643480319542 -5.3488175895396486e-08 0.0 -5.3488175895396486e-08
620 7.724026554334103e-05 0.0001158082707814912 0.00011586039831501154 -5.212753352034138e-08 0.0 -5.212753352034138e-08
630 7.540856117066771e-05 0.00011306201876528934 0.00011311284175600156 -5.082299071222089e-08 0.0 -5.082299071222089e-08
640 7.370398877067678e-05 0.00011050641225068082 0.00011055598315601518 -4.957090533436187e-08 0.0 -4.957090533436187e-08
650 7.211587849539295e-05 0.00010812544978698 0.00010817381774308943 -4.836795610942388e-08 0.0 -4.836795610942388e-08
660 7.063461008354682e-05 0.00010590470401697732 0.00010595191512532024 -4.72111083429134e-08 0.0 -4.72111083429134e-08
670 6.92514947550749e-05 0.00010383114454874879 0.00010387724213261235 -4.609758386356478e-08 0.0 -4.609758386356478e-08
680 6.795867186864191e-05 0.0001018929829683648 0.00010193800780296288 -4.502483459807629e-08 0.0 -4.502483459807629e-08
690 6.674901834031254e-05 0.00010007953699118229 0.00010012352751046881 -4.399051928651731e-08 0.0 -4.399051928651731e-08
700 6.561606911092369e-05 9.838111118346675e-05 9.842410366638554e-05 -4.299248291879243e-08 0.0 -4.299248291879243e-08
710 6.455394719512884e-05 9.678889205415877e-05 9.683092079269327e-05 -4.2028738534505e-08 0.0 -4.2028738534505e-08
720 6.355730205345798e-05 9.529485562910642e-05 9.533595308018698e-05 -4.109745108054913e-08 0.0 -4.109745108054913e-08
730 6.262125520587009e-05 9.389168588574065e-05 9.393188280880514e-05 -4.019692306449265e-08 0.0 -4.019692306449265e-08
740 6.174135215605772e-05 9.257270265230785e-05 9.261202823408658e-05 -3.932558177872621e-08 0.0 -3.932558177872621e-08
750 6.091351982428781e-05 9.133179776853015e-05 9.137027973643172e-05 -3.84819679015775e-08 0.0 -3.84819679015775e-08
760 6.0134028796271266e-05 9.016337846909882e-05 9.02010431944069e-05 -3.7664725308083864e-08 0.0 -3.7664725308083864e-08
770 5.9399459789328896e-05 8.90623170920477e-05 8.909918968399335e-05 -3.687259194564854e-08 0.0 -3.687259194564854e-08
780 5.8706673817403224e-05 8.802390633445582e-05 8.806001072610484e-05 -3.610439164902171e-08 0.0 -3.610439164902171e-08
790 5.8052785605284364e-05 8.704381938114108e-05 8.707917840792655e-05 -3.535902678546807e-08 0.0 -3.535902678546807e-08
800 5.7435139861505096e-05 8.611807432062259e-05 8.615270979225764e-05 -3.463547163505591e-08 0.0 -3.463547163505591e-08
810 5.685129007016645e-05 8.524300233882658e-05 8.527693510524968e-05 -3.393276642308762e-08 0.0 -3.393276642308762e-08
820 5.6298979505700035e-05 8.441521924661797e-05 8.444846925855006e-05 -3.325001193209064e-08 0.0 -3.325001193209064e-08
830 5.577612421230358e-05 8.36315999538256e-05 8.366418631845536e-05 -3.258636462976119e-08 0.0 -3.258636462976119e-08
840 5.5280797722364076e-05 8.28892555512891e-05 8.292119658354611e-05 -3.194103225700961e-08 0.0 -3.194103225700961e-08
850 5.48112173163681e-05 8.218551270472518e-05 8.221682597455216e-05 -3.131326982697186e-08 0.0 -3.131326982697186e-08
860 5.4365731651206504e-05 8.151789510081806e-05 8.154859747680975e-05 -3.070237599168493e-08 0.0 -3.070237599168493e-08
870 5.394280960495606e-05 8.088410671769589e-05 8.091421440743409e-05 -3.0107689738195855e-08 0.0 -3.0107689738195855e-08
880 5.3541030204613795e-05 8.02820167195404e-05 8.03115453069207e-05 -2.952858738029126e-08 0.0 -2.952858738029126e-08
890 5.3159073519262154e-05 7.970964579907733e-05 7.973861027889323e-05 -2.896447981589471e-08 0.0 -2.896447981589471e-08
900 5.2795712415082634e-05 7.91651538126004e-05 7.919356862262395e-05 -2.8414810023551413e-08 0.0 -2.8414810023551413e-08
910 5.244980508079652e-05 7.86468285704204e-05 7.867470762119478e-05 -2.7879050774378862e-08 0.0 -2.7879050774378862e-08
920 5.212028824273558e-05 7.815307566156491e-05 7.818043236410337e-05 -2.735670253845418e-08 0.0 -2.735670253845418e-08
930 5.1806170998038854e-05 7.768240920549138e-05 7.770925649705828e-05 -2.6847291566893316e-08 0.0 -2.6847291566893316e-08
940 5.150652920261352e-05 7.72334434357874e-05 7.725979380392027e-05 -2.6350368132884874e-08 0.0 -2.6350368132884874e-08
950 5.1220500357637526e-05 7.680488503153957e-05 7.683075053645629e-05 -2.586550491671466e-08 0.0 -2.586550491671466e-08
960 5.09472789446534e-05 7.639552612145871e-05 7.64209184169801e-05 -2.5392295521382814e-08 0.0 -2.5392295521382814e-08
970 5.068611216482027e-05 7.600423789412359e-05 7.60291682472304e-05 -2.4930353106801983e-08 0.0 -2.4930353106801983e-08
980 5.043629604274519e-05 7.562996475498599e-05 7.565444406411778e-05 -2.4479309131791338e-08 0.0 -2.4479309131791338e-08
990 5.0197171859598635e-05 7.527171897720377e-05 7.529575778939795e-05 -2.4038812194174396e-08 0.0 -2.4038812194174396e-08
1000 4.9968122884000366e-05 7.49285757990403e-05 7.495218432600055e-05 -2.3608526960253837e-08 0.0 -2.3608526960253837e-08
1010 4.9748571372499856e-05 7.459966892557398e-05 7.462285705874978e-05 -2.3188133175802494e-08 0.0 -2.3188133175802494e-08
1020 4.953797581443538e-05 7.42841863969016e-05 7.430696372165307e-05 -2.2777324751475144e-08 0.0 -2.2777324751475144e-08
1030 4.9335828398573785e-05 7.398136678894444e-05 7.400374259786067e-05 -2.2375808916234662e-08 0.0 -2.2375808916234662e-08
1040 4.914165268125803e-05 7.369049571645404e-05 7.371247902188705e-05 -2.198330543299723e-08 0.0 -2.198330543299723e-08
1050 4.8955001437851026e-05 7.341090261090529e-05 7.343250215677654e-05 -2.1599545871251077e-08 0.0 -2.1599545871251077e-08
1060 4.877545468110158e-05 7.314195774872047e-05 7.316318202165237e-05 -2.1224272931894163e-08 0.0 -2.1224272931894163e-08
1070 4.860261783169034e-05 7.288306950771554e-05 7.290392674753551e-05 -2.0857239819978122e-08 0.0 -2.0857239819978122e-08
1080 4.8436120027668484e-05 7.263368183184129e-05 7.265418004150273e-05 -2.0498209661440564e-08 0.0 -2.0498209661440564e-08
1090 4.8275612560800005e-05 7.239327188623974e-05 7.24134188412e-05 -2.014695496026533e-08 0.0 -2.014695496026533e-08
1100 4.812076742897941e-05 7.216134788637628e-05 7.218115114346911e-05 -1.980325709283035e-08 0.0 -1.980325709283035e-08
1110 4.797127599493211e-05 7.193744708656167e-05 7.195691399239816e-05 -1.9466905836491074e-08 0.0 -1.9466905836491074e-08
1120 4.78268477423316e-05 7.17211339145677e-05 7.17402716134974e-05 -1.913769892970965e-08 0.0 -1.913769892970965e-08
1130 4.768720912129999e-05 7.151199824028872e-05 7.153081368194999e-05 -1.8815441661273813e-08 0.0 -1.8815441661273813e-08
1140 4.755210247600429e-05 7.130965376752006e-05 7.132815371400643e-05 -1.84999464863638e-08 0.0 -1.84999464863638e-08
1150 4.7421285047727845e-05 7.111373653892436e-05 7.113192757159177e-05 -1.8191032667416975e-08 0.0 -1.8191032667416975e-08
1160 4.7294528047400807e-05 7.092390354516329e-05 7.094179207110121e-05 -1.78885259379152e-08 0.0 -1.78885259379152e-08
1170 4.7171615792112004e-05 7.073983142998062e-05 7.0757423688168e-05 -1.759225818737814e-08 0.0 -1.759225818737814e-08
1180 4.705234490061288e-05 7.056121528375333e-05 7.057851735091932e-05 -1.7302067165988878e-08 0.0 -1.7302067165988878e-08
1190 4.69365235432646e-05 7.03877675186895e-05 7.04047853148969e-05 -1.7017796207408996e-08 0.0 -1.7017796207408996e-08
1200 4.682397074227442e-05 7.021921681944318e-05 7.023595611341164e-05 -1.6739293968459242e-08 0.0 -1.6739293968459242e-08
1210 4.6714515718425315e-05 7.005530716345352e-05 7.007177357763797e-05 -1.646641418444887e-08 0.0 -1.646641418444887e-08
1220 4.6607997280827414e-05 6.989579690580208e-05 6.991199592124112e-05 -1.6199015439036278e-08 0.0 -1.6199015439036278e-08
1230 4.650426325651349e-05 6.974045792382265e-05 6.975639488477024e-05 -1.593696094759236e-08 0.0 -1.593696094759236e-08
1240 4.640316995696426e-05 6.958907481709328e-05 6.96047549354464e-05 -1.568011835311988e-08 0.0 -1.568011835311988e-08
1250 4.630458167889136e-05 6.944144415880319e-05 6.945687251833705e-05 -1.542835953385734e-08 0.0 -1.542835953385734e-08
1260 4.620837023682439e-05 6.929737379481483e-05 6.931255535523659e-05 -1.5181560421763465e-08 0.0 -1.5181560421763465e-08
1270 4.611441452524566e-05 6.915668218703734e-05 6.917162178786849e-05 -1.4939600831140745e-08 0.0 -1.4939600831140745e-08
1280 4.602260010819906e-05 6.901919779800188e-05 6.90339001622986e-05 -1.4702364296714199e-08 0.0 -1.4702364296714199e-08
1290 4.593281883446147e-05 6.888475851377168e-05 6.889922825169221e-05 -1.446973792053347e-08 0.0 -1.446973792053347e-08
1300 4.5844968476516374e-05 6.875321110254745e-05 6.876745271477456e-05 -1.4241612227113508e-08 0.0 -1.4241612227113508e-08
1310 4.5758952391705225e-05 6.862441070653155e-05 6.863842858755783e-05 -1.401788102627472e-08 0.0 -1.401788102627472e-08
1320 4.567467920405722e-05 6.849822036480264e-05 6.851201880608582e-05 -1.3798441283181589e-08 0.0 -1.3798441283181589e-08
1330 4.559206250541205e-05 6.837451056512296e-05 6.838809375811807e-05 -1.3583192995118098e-08 0.0 -1.3583192995118098e-08
1340 4.551102057455326e-05 6.825315882275532e-05 6.826653086182989e-05 -1.3372039074570152e-08 0.0 -1.3372039074570152e-08
1350 4.543147611316777e-05 6.813404928451344e-05 6.814721416975166e-05 -1.3164885238217942e-08 0.0 -1.3164885238217942e-08
1360 4.5353355997531155e-05 6.801707235639526e-05 6.803003399629673e-05 -1.2961639901469466e-08 0.0 -1.2961639901469466e-08
1370 4.527659104490182e-05 6.790212435327455e-05 6.791488656735274e-05 -1.2762214078192403e-08 0.0 -1.2762214078192403e-08
1380 4.520111579367765e-05 6.778910716923114e-05 6.780167369051647e-05 -1.2566521285327099e-08 0.0 -1.2566521285327099e-08
1390 4.5126868296438786e-05 6.76779279672061e-05 6.769030244465818e-05 -1.2374477452084179e-08 0.0 -1.2374477452084179e-08
1400 4.505378992506081e-05 6.756849888675777e-05 6.758068488759122e-05 -1.2186000833453175e-08 0.0 -1.2186000833453175e-08
1410 4.49818251871405e-05 6.746073676878298e-05 6.747273778071075e-05 -1.2001011927765593e-08 0.0 -1.2001011927765593e-08
1420 4.491092155302861e-05 6.735456289614485e-05 6.736638232954292e-05 -1.1819433398074678e-08 0.0 -1.1819433398074678e-08
1430 4.484102929281361e-05 6.724990274922328e-05 6.726154393922041e-05 -1.164118999713043e-08 0.0 -1.164118999713043e-08
1440 4.477210132264288e-05 6.714668577546858e-05 6.715815198396432e-05 -1.146620849574287e-08 0.0 -1.146620849574287e-08
1450 4.470409305981264e-05 6.704484517210463e-05 6.705613958971896e-05 -1.1294417614340998e-08 0.0 -1.1294417614340998e-08
1460 4.463696228609326e-05 6.694431768118235e-05 6.69554434291399e-05 -1.1125747957547692e-08 0.0 -1.1125747957547692e-08
1470 4.4570669018792875e-05 6.684504339623771e-05 6.685600352818931e-05 -1.0960131951602507e-08 0.0 -1.0960131951602507e-08
1480 4.4505175389095e-05 6.674696557985801e-05 6.67577630836425e-05 -1.0797503784475525e-08 0.0 -1.0797503784475525e-08
1490 4.444044552723796e-05 6.665003049150841e-05 6.666066829085694e-05 -1.0637799348525698e-08 0.0 -1.0637799348525698e-08
1500 4.437644545412773e-05 6.655418722500602e-05 6.656466818119159e-05 -1.0480956185566692e-08 0.0 -1.0480956185566692e-08
1510 4.431314297900671e-05 6.645938755507585e-05 6.646971446851006e-05 -1.0326913434211648e-08 0.0 -1.0326913434211648e-08
1520 4.4250507602821367e-05 6.636558579245268e-05 6.637576140423205e-05 -1.0175611779376872e-08 0.0 -1.0175611779376872e-08
1530 4.41885104269581e-05 6.627273864703331e-05 6.628276564043715e-05 -1.0026993403831816e-08 0.0 -1.0026993403831816e-08
1540 4.4127124067032567e-05 6.618080509860716e-05 6.619068610054885e-05 -9.881001941689924e-09 0.0 -9.881001941689924e-09
1550 4.40663225714419e-05 6.608974627472912e-05 6.609948385716285e-05 -9.737582433741261e-09 0.0 -9.737582433741261e-09
1560 4.400608134440524e-05 6.599952533532333e-05 6.600912201660786e-05 -9.596681284534066e-09 0.0 -9.596681284534066e-09
1570 4.394637707323432e-05 6.591010736363037e-05 6.591956560985148e-05 -9.458246221118118e-09 0.0 -9.458246221118118e-09
1580 4.388718765959326e-05 6.582145926313652e-05 6.583078148938988e-05 -9.322226253367733e-09 0.0 -9.322226253367733e-09
1590 4.3828492154519945e-05 6.57335496601441e-05 6.574273823177991e-05 -9.188571635807583e-09 0.0 -9.188571635807583e-09
1600 4.377027069699667e-05 6.564634881166414e-05 6.5655406045495e-05 -9.057233830868754e-09 0.0 -9.057233830868754e-09
1610 4.371250445586781e-05 6.55598285183282e-05 6.556875668380171e-05 -8.928165473506904e-09 0.0 -8.928165473506904e-09
1620 4.3655175574918294e-05 6.547396204204033e-05 6.548276336237744e-05 -8.801320337118125e-09 0.0 -8.801320337118125e-09
1630 4.359826712093375e-05 6.538872402809993e-05 6.539740068140063e-05 -8.676653300692275e-09 0.0 -8.676653300692275e-09
1640 4.354176303457665e-05 6.530409043154784e-05 6.531264455186498e-05 -8.554120317146488e-09 0.0 -8.554120317146488e-09
